% Cross-shore bed profiles along the groundwater wells, measured with RTK-GPS.
%
% Column 1: cross-shore distance x, in m, with x = 0 m at the pressure transducer (PT) and x positive onshore.
% Columns 2-11: bed elevation z, in m with respect to Mean Sea Level (MSL), z positive above MSL, for
%               October 11 up to and including October 20, 2014. One column for each day.
% Column 12: mean bed profile (i.e., average over columns 2-11).

  0   -1.090   -1.090   -1.090   -1.090   -1.090   -1.090   -1.090   -1.090   -1.090   -1.090   -1.090
  1   -1.039   -1.045   -1.045   -1.045   -1.048   -1.037   -1.036   -1.036   -1.042   -1.042   -1.042
  2   -0.989   -1.000   -1.000   -1.000   -1.006   -0.985   -0.982   -0.982   -0.994   -0.994   -0.993
  3   -0.938   -0.955   -0.955   -0.955   -0.964   -0.932   -0.928   -0.928   -0.946   -0.946   -0.945
  4   -0.888   -0.910   -0.910   -0.910   -0.923   -0.880   -0.874   -0.874   -0.898   -0.898   -0.896
  5   -0.842   -0.865   -0.865   -0.867   -0.880   -0.829   -0.826   -0.826   -0.855   -0.855   -0.851
  6   -0.811   -0.825   -0.823   -0.836   -0.836   -0.788   -0.793   -0.793   -0.824   -0.824   -0.815
  7   -0.780   -0.786   -0.781   -0.804   -0.792   -0.747   -0.760   -0.760   -0.793   -0.793   -0.780
  8   -0.749   -0.746   -0.739   -0.773   -0.747   -0.705   -0.728   -0.728   -0.762   -0.762   -0.744
  9   -0.718   -0.706   -0.697   -0.742   -0.703   -0.664   -0.695   -0.695   -0.722   -0.733   -0.707
 10   -0.687   -0.666   -0.655   -0.710   -0.659   -0.623   -0.662   -0.662   -0.672   -0.705   -0.670
 11   -0.656   -0.626   -0.613   -0.678   -0.615   -0.581   -0.630   -0.630   -0.623   -0.676   -0.633
 12   -0.625   -0.586   -0.570   -0.647   -0.571   -0.540   -0.597   -0.597   -0.574   -0.648   -0.595
 13   -0.594   -0.546   -0.527   -0.615   -0.526   -0.499   -0.564   -0.564   -0.524   -0.620   -0.558
 14   -0.563   -0.506   -0.484   -0.578   -0.487   -0.460   -0.532   -0.526   -0.475   -0.592   -0.520
 15   -0.532   -0.466   -0.441   -0.529   -0.455   -0.425   -0.499   -0.478   -0.426   -0.563   -0.481
 16   -0.501   -0.426   -0.398   -0.481   -0.422   -0.389   -0.466   -0.430   -0.377   -0.535   -0.442
 17   -0.470   -0.386   -0.357   -0.432   -0.390   -0.354   -0.433   -0.382   -0.327   -0.507   -0.404
 18   -0.439   -0.346   -0.318   -0.384   -0.357   -0.318   -0.400   -0.334   -0.278   -0.478   -0.365
 19   -0.408   -0.306   -0.278   -0.335   -0.324   -0.283   -0.367   -0.287   -0.229   -0.450   -0.327
 20   -0.377   -0.266   -0.239   -0.286   -0.292   -0.243   -0.334   -0.250   -0.188   -0.422   -0.290
 21   -0.346   -0.218   -0.200   -0.238   -0.252   -0.200   -0.302   -0.220   -0.156   -0.394   -0.252
 22   -0.315   -0.167   -0.161   -0.189   -0.207   -0.158   -0.269   -0.189   -0.124   -0.365   -0.214
 23   -0.279   -0.128   -0.125   -0.150   -0.168   -0.124   -0.235   -0.155   -0.102   -0.337   -0.180
 24   -0.240   -0.095   -0.092   -0.116   -0.132   -0.095   -0.201   -0.118   -0.085   -0.309   -0.148
 25   -0.202   -0.062   -0.059   -0.082   -0.096   -0.065   -0.166   -0.082   -0.068   -0.280   -0.116
 26   -0.163   -0.029   -0.026   -0.048   -0.061   -0.035   -0.132   -0.045   -0.051   -0.252   -0.084
 27   -0.123   -0.002    0.018   -0.007   -0.024    0.004   -0.095   -0.005   -0.025   -0.224   -0.048
 28   -0.082    0.021    0.072    0.039    0.014    0.049   -0.055    0.036    0.005   -0.195   -0.009
 29   -0.041    0.044    0.126    0.086    0.052    0.095   -0.015    0.078    0.036   -0.166    0.030
 30   -0.004    0.067    0.170    0.124    0.083    0.129    0.024    0.115    0.070   -0.137    0.064
 31    0.028    0.089    0.204    0.151    0.108    0.153    0.061    0.148    0.106   -0.108    0.094
 32    0.060    0.112    0.239    0.179    0.132    0.178    0.097    0.181    0.143   -0.079    0.124
 33    0.093    0.135    0.273    0.207    0.156    0.203    0.134    0.214    0.180   -0.050    0.155
 34    0.125    0.158    0.308    0.235    0.182    0.224    0.171    0.247    0.215   -0.021    0.184
 35    0.156    0.181    0.337    0.263    0.208    0.244    0.208    0.280    0.243    0.010    0.213
 36    0.187    0.204    0.361    0.292    0.234    0.264    0.245    0.305    0.271    0.044    0.241
 37    0.219    0.226    0.385    0.321    0.259    0.284    0.283    0.326    0.299    0.077    0.268
 38    0.250    0.249    0.409    0.350    0.285    0.304    0.320    0.346    0.327    0.111    0.295
 39    0.275    0.256    0.432    0.374    0.310    0.323    0.355    0.370    0.358    0.141    0.319
 40    0.310    0.291    0.452    0.392    0.329    0.339    0.384    0.405    0.395    0.173    0.347
 41    0.345    0.326    0.472    0.410    0.349    0.355    0.414    0.440    0.432    0.205    0.375
 42    0.379    0.363    0.492    0.425    0.368    0.373    0.443    0.474    0.468    0.238    0.402
 43    0.411    0.407    0.512    0.438    0.387    0.398    0.472    0.507    0.489    0.269    0.429
 44    0.443    0.450    0.532    0.450    0.406    0.422    0.501    0.540    0.511    0.300    0.456
 45    0.468    0.480    0.552    0.469    0.429    0.446    0.518    0.563    0.529    0.334    0.479
 46    0.491    0.506    0.572    0.492    0.454    0.470    0.531    0.579    0.547    0.369    0.501
 47    0.513    0.531    0.592    0.514    0.479    0.493    0.543    0.596    0.565    0.404    0.523
 48    0.536    0.556    0.612    0.536    0.504    0.517    0.555    0.612    0.583    0.438    0.545
 49    0.559    0.581    0.632    0.559    0.529    0.541    0.567    0.629    0.601    0.473    0.567
 50    0.581    0.606    0.652    0.581    0.553    0.564    0.579    0.645    0.618    0.508    0.589
 51    0.614    0.631    0.668    0.605    0.571    0.584    0.591    0.654    0.630    0.529    0.608
 52    0.639    0.657    0.684    0.629    0.588    0.602    0.603    0.662    0.642    0.550    0.626
 53    0.663    0.682    0.700    0.653    0.604    0.621    0.615    0.670    0.653    0.570    0.643
 54    0.685    0.704    0.717    0.675    0.624    0.641    0.627    0.680    0.664    0.590    0.661
 55    0.704    0.719    0.735    0.693    0.651    0.660    0.639    0.693    0.674    0.607    0.677
 56    0.723    0.733    0.753    0.711    0.677    0.679    0.651    0.707    0.684    0.625    0.694
 57    0.737    0.748    0.781    0.730    0.699    0.700    0.665    0.720    0.694    0.656    0.713
 58    0.750    0.763    0.811    0.749    0.719    0.722    0.688    0.731    0.704    0.692    0.733
 59    0.761    0.777    0.838    0.768    0.738    0.745    0.709    0.743    0.714    0.729    0.752
 60    0.762    0.792    0.850    0.786    0.758    0.768    0.722    0.754    0.724    0.764    0.768
 61    0.769    0.797    0.853    0.802    0.784    0.797    0.751    0.787    0.763    0.794    0.790
 62    0.776    0.800    0.855    0.819    0.811    0.826    0.782    0.822    0.807    0.824    0.812
 63    0.784    0.804    0.858    0.839    0.838    0.856    0.812    0.858    0.852    0.854    0.835
 64    0.791    0.807    0.862    0.863    0.866    0.886    0.841    0.900    0.884    0.884    0.859
 65    0.799    0.811    0.866    0.888    0.895    0.916    0.870    0.940    0.915    0.914    0.881
 66    0.806    0.814    0.870    0.913    0.924    0.946    0.903    0.963    0.941    0.948    0.903
 67    0.814    0.818    0.874    0.938    0.952    0.976    0.935    0.987    0.967    0.982    0.924
 68    0.821    0.821    0.879    0.964    0.981    1.006    0.968    1.011    0.993    1.015    0.946
 69    0.905    0.913    0.957    1.010    1.020    1.058    1.021    1.070    1.053    1.054    1.006
 70    0.988    1.006    1.043    1.059    1.060    1.112    1.068    1.131    1.116    1.092    1.068
 71    1.059    1.084    1.117    1.107    1.105    1.161    1.113    1.183    1.170    1.132    1.123
 72    1.111    1.133    1.163    1.153    1.159    1.199    1.155    1.222    1.207    1.174    1.168
 73    1.163    1.182    1.208    1.199    1.214    1.237    1.198    1.260    1.243    1.216    1.212
 74    1.213    1.232    1.259    1.243    1.261    1.275    1.245    1.303    1.287    1.248    1.257
 75    1.253    1.282    1.313    1.286    1.301    1.329    1.294    1.358    1.335    1.279    1.303
 76    1.292    1.333    1.367    1.329    1.341    1.383    1.344    1.413    1.383    1.309    1.349
 77    1.336    1.388    1.410    1.381    1.389    1.421    1.386    1.436    1.410    1.355    1.391
 78    1.381    1.442    1.452    1.433    1.437    1.459    1.428    1.460    1.436    1.402    1.433
 79    1.427    1.483    1.488    1.488    1.481    1.496    1.464    1.496    1.477    1.445    1.474
 80    1.473    1.518    1.529    1.544    1.522    1.533    1.502    1.538    1.524    1.487    1.517
 81    1.520    1.552    1.578    1.583    1.563    1.569    1.542    1.580    1.571    1.529    1.559
 82    1.558    1.587    1.626    1.615    1.605    1.610    1.583    1.616    1.617    1.570    1.599
 83    1.595    1.622    1.675    1.646    1.646    1.651    1.623    1.651    1.649    1.611    1.637
 84    1.632    1.664    1.724    1.677    1.687    1.693    1.664    1.686    1.680    1.652    1.676
 85    1.669    1.707    1.773    1.708    1.728    1.734    1.704    1.721    1.711    1.692    1.715
 86    1.711    1.748    1.813    1.745    1.770    1.770    1.745    1.758    1.749    1.734    1.754
 87    1.756    1.786    1.845    1.788    1.811    1.800    1.786    1.798    1.792    1.777    1.794
 88    1.802    1.825    1.877    1.830    1.853    1.829    1.828    1.839    1.836    1.821    1.834
 89    1.847    1.863    1.909    1.873    1.894    1.874    1.869    1.879    1.879    1.864    1.875
 90    1.891    1.902    1.941    1.915    1.936    1.920    1.910    1.920    1.923    1.907    1.916
 91    1.934    1.948    1.973    1.958    1.977    1.966    1.952    1.960    1.958    1.950    1.958
 92    1.977    1.995    2.005    2.000    2.019    2.011    1.993    2.002    1.994    1.988    1.999
 93    2.020    2.042    2.054    2.043    2.061    2.057    2.034    2.045    2.029    2.024    2.041
 94    2.064    2.089    2.122    2.087    2.102    2.103    2.076    2.088    2.064    2.060    2.086
 95    2.107    2.130    2.174    2.128    2.140    2.140    2.115    2.128    2.101    2.100    2.126
 96    2.145    2.165    2.204    2.165    2.174    2.164    2.152    2.163    2.139    2.147    2.162
 97    2.182    2.200    2.234    2.202    2.208    2.195    2.188    2.198    2.177    2.194    2.198
 98    2.219    2.235    2.264    2.239    2.241    2.231    2.225    2.233    2.215    2.241    2.234
 99    2.257    2.270    2.293    2.273    2.275    2.266    2.261    2.268    2.253    2.289    2.270
100    2.294    2.304    2.323    2.307    2.309    2.302    2.298    2.303    2.291    2.327    2.306
101    2.332    2.339    2.353    2.341    2.342    2.337    2.334    2.338    2.329    2.356    2.340
102    2.369    2.374    2.383    2.375    2.376    2.373    2.371    2.373    2.368    2.385    2.375
103    2.406    2.409    2.413    2.409    2.410    2.408    2.407    2.408    2.406    2.414    2.409
104    2.442    2.442    2.442    2.442    2.442    2.443    2.442    2.442    2.442    2.442    2.442
105    2.465    2.465    2.465    2.465    2.465    2.478    2.465    2.465    2.465    2.466    2.466
106    2.487    2.487    2.487    2.487    2.487    2.512    2.487    2.487    2.487    2.489    2.490
107    2.509    2.509    2.509    2.509    2.509    2.543    2.509    2.509    2.509    2.513    2.513
108    2.532    2.532    2.532    2.532    2.532    2.565    2.532    2.532    2.532    2.535    2.535
109    2.554    2.554    2.554    2.554    2.554    2.586    2.554    2.554    2.554    2.558    2.557
110    2.576    2.576    2.576    2.576    2.576    2.607    2.576    2.576    2.576    2.580    2.580
111    2.599    2.599    2.599    2.599    2.599    2.628    2.599    2.599    2.599    2.602    2.602
112    2.621    2.621    2.621    2.621    2.621    2.649    2.621    2.621    2.621    2.624    2.624
113    2.643    2.643    2.643    2.643    2.643    2.670    2.643    2.643    2.643    2.646    2.646
114    2.666    2.666    2.666    2.666    2.666    2.691    2.666    2.666    2.666    2.669    2.668
115    2.688    2.688    2.688    2.688    2.688    2.713    2.688    2.688    2.688    2.691    2.691
116    2.710    2.710    2.710    2.710    2.710    2.734    2.710    2.710    2.710    2.713    2.713
117    2.733    2.733    2.733    2.733    2.733    2.755    2.733    2.733    2.733    2.735    2.735
118    2.755    2.755    2.755    2.755    2.755    2.776    2.755    2.755    2.755    2.757    2.757
119    2.777    2.777    2.777    2.777    2.777    2.797    2.777    2.777    2.777    2.780    2.779
120    2.800    2.800    2.800    2.800    2.800    2.818    2.800    2.800    2.800    2.802    2.802
121    2.822    2.822    2.822    2.822    2.822    2.840    2.822    2.822    2.822    2.824    2.824
122    2.844    2.844    2.844    2.844    2.844    2.861    2.844    2.844    2.844    2.846    2.846
123    2.867    2.867    2.867    2.867    2.867    2.882    2.867    2.867    2.867    2.868    2.868
124    2.889    2.889    2.889    2.889    2.889    2.903    2.889    2.889    2.889    2.891    2.890
125    2.911    2.911    2.911    2.911    2.911    2.924    2.911    2.911    2.911    2.913    2.913
126    2.934    2.934    2.934    2.934    2.934    2.945    2.934    2.934    2.934    2.935    2.935
127    2.956    2.956    2.956    2.956    2.956    2.967    2.956    2.956    2.956    2.957    2.957
128    2.978    2.978    2.978    2.978    2.978    2.988    2.978    2.978    2.978    2.979    2.979
129    3.001    3.001    3.001    3.001    3.001    3.009    3.001    3.001    3.001    3.001    3.001
130    3.023    3.023    3.023    3.023    3.023    3.030    3.023    3.023    3.023    3.024    3.024
131    3.045    3.045    3.045    3.045    3.045    3.051    3.045    3.045    3.045    3.046    3.046
132    3.068    3.068    3.068    3.068    3.068    3.072    3.068    3.068    3.068    3.068    3.068
133    3.090    3.090    3.090    3.090    3.090    3.094    3.090    3.090    3.090    3.090    3.090
134    3.112    3.112    3.112    3.112    3.112    3.115    3.112    3.112    3.112    3.112    3.112
135    3.134    3.134    3.134    3.134    3.134    3.136    3.134    3.134    3.134    3.135    3.135
136    3.157    3.157    3.157    3.157    3.157    3.157    3.157    3.157    3.157    3.157    3.157
